time (s),y_offset (mm),angle (deg)
0.000,-1.341,-0.353
0.008,-0.592,-0.156
0.017,0.148,0.039
0.025,0.871,0.229
0.033,1.619,0.425
0.042,2.417,0.635
0.050,3.160,0.830
0.058,3.928,1.032
0.067,4.744,1.247
0.075,5.545,1.457
0.083,6.378,1.677
0.092,7.206,1.894
0.100,8.075,2.123
0.108,8.934,2.349
0.117,9.821,2.582
0.125,10.727,2.822
0.133,11.631,3.060
0.142,12.609,3.318
0.150,13.549,3.567
0.158,14.479,3.813
0.167,15.375,4.051
0.175,16.237,4.279
0.183,17.091,4.507
0.192,17.993,4.746
0.200,18.896,4.986
0.208,19.833,5.235
0.217,20.818,5.498
0.225,21.833,5.767
0.234,22.825,6.032
0.242,23.747,6.280
0.250,24.652,6.521
0.259,25.497,6.748
0.267,26.224,6.943
0.275,26.948,7.137
0.284,27.674,7.331
0.292,28.400,7.525
0.300,29.025,7.696
0.309,29.745,7.889
0.317,30.425,8.073
0.325,31.137,8.264
0.334,31.892,8.467
0.342,32.628,8.666
0.350,33.365,8.868
0.359,34.097,9.065
0.367,34.784,9.253
0.375,35.416,9.426
0.384,36.027,9.594
0.392,36.655,9.768
0.400,37.311,9.948
0.409,37.918,10.116
0.417,38.508,10.277
0.425,39.021,10.420
0.434,39.429,10.532
0.442,39.819,10.641
0.450,40.153,10.732
0.459,40.460,10.815
0.467,40.806,10.910
0.475,41.134,11.001
0.484,41.535,11.111
0.492,41.886,11.208
0.500,42.191,11.293
0.509,42.463,11.371
0.517,42.691,11.436
0.525,42.925,11.502
0.534,43.119,11.555
0.542,43.313,11.610
0.550,43.530,11.671
0.559,43.664,11.710
0.567,43.795,11.749
0.575,43.911,11.783
0.584,43.926,11.788
0.592,43.959,11.796
0.600,43.837,11.765
0.609,43.714,11.731
0.617,43.494,11.671
0.625,43.287,11.609
0.634,42.969,11.520
0.642,42.638,11.426
0.651,42.358,11.346
0.659,42.052,11.260
0.667,41.797,11.190
0.676,41.655,11.149
0.684,41.467,11.097
0.692,41.315,11.054
0.701,41.150,11.006
0.709,40.902,10.937
0.717,40.726,10.888
0.726,40.512,10.824
0.734,40.273,10.762
0.742,40.060,10.704
0.751,39.828,10.641
0.759,39.512,10.554
0.767,39.168,10.460
0.776,38.752,10.347
0.784,38.312,10.224
0.792,37.875,10.101
0.801,37.361,9.960
0.809,36.884,9.829
0.817,36.352,9.686
0.826,35.872,9.552
0.834,35.305,9.398
0.842,34.713,9.237
0.851,34.234,9.106
0.859,33.773,8.980
0.867,33.318,8.857
0.876,32.846,8.730
0.884,32.365,8.600
0.892,31.815,8.452
0.901,31.278,8.305
0.909,30.686,8.144
0.917,30.109,7.986
0.926,29.482,7.815
0.934,28.828,7.638
0.942,28.110,7.445
0.951,27.386,7.250
0.959,26.667,7.056
0.967,25.897,6.851
0.976,25.253,6.676
0.984,24.549,6.486
0.992,23.896,6.312
1.001,23.277,6.146
1.009,22.637,5.975
1.017,22.079,5.825
1.026,21.485,5.667
1.034,20.886,5.508
1.042,20.252,5.339
1.051,19.594,5.165
1.059,18.912,4.984
1.068,18.196,4.793
1.076,17.495,4.608
1.084,16.779,4.418
1.093,16.061,4.228
1.101,15.350,4.040
1.109,14.591,3.839
1.118,13.841,3.642
1.126,13.047,3.432
1.134,12.337,3.244
1.143,11.544,3.035
1.151,10.719,2.818
1.159,9.946,2.614
1.168,9.138,2.401
1.176,8.363,2.198
1.184,7.551,1.984
1.193,6.797,1.786
1.201,5.921,1.555
1.209,5.042,1.325
1.218,4.208,1.105
1.226,3.329,0.875
1.234,2.459,0.646
1.243,1.553,0.408
1.251,0.631,0.166
1.259,-0.285,-0.075
1.268,-1.220,-0.320
1.276,-2.204,-0.579
1.284,-3.208,-0.843
1.293,-4.179,-1.098
1.301,-5.147,-1.353
1.309,-6.107,-1.606
1.318,-7.025,-1.848
1.326,-7.940,-2.089
1.334,-8.802,-2.317
1.343,-9.598,-2.527
1.351,-10.342,-2.723
1.359,-11.112,-2.926
1.368,-11.898,-3.135
1.376,-12.625,-3.327
1.384,-13.370,-3.525
1.393,-14.183,-3.739
1.401,-14.949,-3.944
1.409,-15.703,-4.144
1.418,-16.448,-4.343
1.426,-17.200,-4.543
1.434,-17.953,-4.745
1.443,-18.734,-4.954
1.451,-19.509,-5.161
1.459,-20.292,-5.370
1.468,-21.025,-5.567
1.476,-21.678,-5.743
1.485,-22.365,-5.926
1.493,-22.951,-6.084
1.501,-23.477,-6.224
1.510,-23.965,-6.356
1.518,-24.415,-6.477
1.526,-24.817,-6.585
1.535,-25.222,-6.693
1.543,-25.638,-6.805
1.551,-26.036,-6.914
1.560,-26.458,-7.028
1.568,-26.878,-7.141
1.576,-27.285,-7.251
1.585,-27.611,-7.341
1.593,-27.926,-7.426
1.601,-28.217,-7.504
1.610,-28.458,-7.572
1.618,-28.663,-7.630
1.626,-28.851,-7.681
1.635,-29.010,-7.726
1.643,-29.142,-7.762
1.651,-29.268,-7.796
1.660,-29.276,-7.799
1.668,-29.194,-7.777
1.676,-29.102,-7.750
1.685,-28.944,-7.705
1.693,-28.748,-7.651
1.701,-28.537,-7.594
1.710,-28.336,-7.539
1.718,-28.151,-7.491
1.726,-28.021,-7.455
1.735,-27.874,-7.414
1.743,-27.716,-7.371
1.751,-27.538,-7.322
1.760,-27.363,-7.276
1.768,-27.188,-7.229
1.776,-26.933,-7.163
1.785,-26.693,-7.098
1.793,-26.387,-7.015
1.801,-26.050,-6.923
1.810,-25.678,-6.822
1.818,-25.285,-6.716
1.826,-24.906,-6.615
1.835,-24.542,-6.515
1.843,-24.150,-6.411
1.851,-23.711,-6.292
1.860,-23.221,-6.161
1.868,-22.704,-6.021
1.876,-22.169,-5.877
1.885,-21.620,-5.730
1.893,-21.112,-5.595
1.901,-20.624,-5.465
1.910,-20.153,-5.339
1.918,-19.667,-5.210
1.927,-19.209,-5.088
1.935,-18.746,-4.963
1.943,-18.245,-4.830
1.952,-17.706,-4.685
1.960,-17.144,-4.535
1.968,-16.592,-4.388
1.977,-15.986,-4.227
1.985,-15.333,-4.052
1.993,-14.590,-3.854
2.002,-13.804,-3.645
2.010,-13.082,-3.454
2.018,-12.334,-3.255
2.027,-11.559,-3.050
2.035,-10.868,-2.866
2.043,-10.156,-2.678
2.052,-9.443,-2.490
2.060,-8.761,-2.309
2.068,-8.119,-2.139
2.077,-7.462,-1.966
2.085,-6.817,-1.796
2.093,-6.169,-1.624
2.102,-5.516,-1.453
2.110,-4.854,-1.278
2.118,-4.171,-1.098
2.127,-3.469,-0.913
2.135,-2.774,-0.730
2.143,-2.050,-0.539
2.152,-1.354,-0.356
2.160,-0.652,-0.171
2.168,0.053,0.014
2.177,0.764,0.201
2.185,1.530,0.402
2.193,2.218,0.584
2.202,2.963,0.779
2.210,3.708,0.975
2.218,4.452,1.171
2.227,5.183,1.363
2.235,5.873,1.545
2.243,6.719,1.768
2.252,7.452,1.961
2.260,8.254,2.173
2.268,9.081,2.391
2.277,9.939,2.617
2.285,10.821,2.850
2.293,11.760,3.097
2.302,12.652,3.333
2.310,13.606,3.585
2.318,14.511,3.824
2.327,15.438,4.070
2.335,16.405,4.326
2.344,17.295,4.562
2.352,18.236,4.812
2.360,19.195,5.067
2.369,20.158,5.323
2.377,21.107,5.575
2.385,22.061,5.829
2.394,22.955,6.068
2.402,23.923,6.326
2.410,24.853,6.576
2.419,25.850,6.842
2.427,26.809,7.099
2.435,27.658,7.328
2.444,28.389,7.525
2.452,29.075,7.709
2.460,29.767,7.896
2.469,30.454,8.081
2.477,31.111,8.259
2.485,31.781,8.439
2.494,32.472,8.625
2.502,33.082,8.792
2.510,33.786,8.984
2.519,34.514,9.182
2.527,35.221,9.378
2.535,35.953,9.576
2.544,36.627,9.760
2.552,37.240,9.933
2.560,37.878,10.108
2.569,38.503,10.281
2.577,39.177,10.466
2.585,39.789,10.638
2.594,40.375,10.799
2.602,40.834,10.930
2.610,41.292,11.058
2.619,41.681,11.164
2.627,42.064,11.270
2.635,42.384,11.360
2.644,42.755,11.459
2.652,43.069,11.549
2.660,43.448,11.651
2.669,43.821,11.754
2.677,44.186,11.858
2.685,44.442,11.932
2.694,44.745,12.017
2.702,45.026,12.096
2.710,45.245,12.159
2.719,45.481,12.223
2.727,45.651,12.275
2.735,45.840,12.329
2.744,46.004,12.374
2.752,46.111,12.410
2.761,46.236,12.443
2.769,46.285,12.459
2.777,46.259,12.452
2.786,46.079,12.404
2.794,45.936,12.359
2.802,45.688,12.291
2.811,45.441,12.219
2.819,45.162,12.139
2.827,44.868,12.058
2.836,44.677,12.000
2.844,44.423,11.928
2.852,44.231,11.876
2.861,44.000,11.810
2.869,43.801,11.754
2.877,43.591,11.697
2.886,43.408,11.639
2.894,43.192,11.578
2.902,42.922,11.506
2.911,42.686,11.440
2.919,42.434,11.370
2.927,42.126,11.286
2.936,41.847,11.210
2.944,41.508,11.113
2.952,41.081,10.997
2.961,40.612,10.864
2.969,40.103,10.725
2.977,39.591,10.584
2.986,39.059,10.436
2.994,38.546,10.295
3.002,38.063,10.161
3.011,37.522,10.013
3.019,37.012,9.874
3.027,36.489,9.733
3.036,35.982,9.594
3.044,35.502,9.464
3.052,35.070,9.343
3.061,34.563,9.207
3.069,34.051,9.067
3.077,33.507,8.917
3.086,32.867,8.746
3.094,32.290,8.587
3.102,31.641,8.412
3.111,30.973,8.231
3.119,30.277,8.041
3.127,29.565,7.847
3.136,28.834,7.650
3.144,28.109,7.454
3.152,27.425,7.269
3.161,26.793,7.098
3.169,26.152,6.927
3.178,25.493,6.750
3.186,24.813,6.566
3.194,24.126,6.382
3.203,23.480,6.207
3.211,22.871,6.044
3.219,22.273,5.884
3.228,21.686,5.728
3.236,21.028,5.552
3.244,20.274,5.351
3.253,19.451,5.131
3.261,18.711,4.934
3.269,18.006,4.747
3.278,17.291,4.560
3.286,16.556,4.363
3.294,15.783,4.159
3.303,15.024,3.957
3.311,14.189,3.736
3.319,13.381,3.523
3.328,12.630,3.324
3.336,11.789,3.102
3.344,10.963,2.884
3.353,10.115,2.660
3.361,9.246,2.431
3.369,8.402,2.209
3.378,7.597,1.997
3.386,6.731,1.769
3.394,5.886,1.547
3.403,4.990,1.311
3.411,4.027,1.059
3.419,3.053,0.802
3.428,2.036,0.535
3.436,1.080,0.284
3.444,0.100,0.026
3.453,-0.860,-0.226
3.461,-1.811,-0.476
3.469,-2.807,-0.738
3.478,-3.783,-0.995
3.486,-4.759,-1.252
3.494,-5.709,-1.503
3.503,-6.693,-1.762
3.511,-7.618,-2.006
3.519,-8.451,-2.226
3.528,-9.208,-2.426
3.536,-9.932,-2.617
3.544,-10.638,-2.805
3.553,-11.409,-3.008
3.561,-12.146,-3.204
3.569,-12.964,-3.421
3.578,-13.752,-3.630
3.586,-14.540,-3.840
3.595,-15.337,-4.051
3.603,-16.134,-4.264
3.611,-16.897,-4.468
3.620,-17.679,-4.676
3.628,-18.467,-4.886
3.636,-19.178,-5.077
3.645,-19.863,-5.260
3.653,-20.603,-5.459
3.661,-21.322,-5.650
3.670,-21.964,-5.823
3.678,-22.543,-5.978
3.686,-23.080,-6.121
3.695,-23.532,-6.243
3.703,-23.930,-6.350
3.711,-24.319,-6.454
3.720,-24.744,-6.567
3.728,-25.130,-6.673
3.736,-25.546,-6.784
3.745,-25.949,-6.893
3.753,-26.363,-7.006
3.761,-26.795,-7.123
3.770,-27.174,-7.228
3.778,-27.517,-7.320
3.786,-27.827,-7.404
3.795,-28.050,-7.469
3.803,-28.345,-7.550
3.811,-28.533,-7.603
3.820,-28.688,-7.645
3.828,-28.820,-7.682
3.836,-28.909,-7.708
3.845,-28.944,-7.718
3.853,-28.911,-7.709
3.861,-28.852,-7.691
3.870,-28.703,-7.650
3.878,-28.507,-7.595
3.886,-28.304,-7.540
3.895,-28.139,-7.494
3.903,-27.980,-7.452
3.911,-27.897,-7.427
3.920,-27.811,-7.402
3.928,-27.678,-7.364
3.936,-27.553,-7.330
3.945,-27.372,-7.282
3.953,-27.208,-7.237
3.961,-26.983,-7.176
3.970,-26.764,-7.116
3.978,-26.477,-7.038
3.986,-26.174,-6.955
3.995,-25.790,-6.851
4.003,-25.410,-6.749
4.011,-25.083,-6.661
4.020,-24.730,-6.565
4.028,-24.314,-6.455
4.037,-23.919,-6.347
4.045,-23.451,-6.221
4.053,-22.922,-6.081
4.062,-22.387,-5.938
4.070,-21.868,-5.798
4.078,-21.390,-5.669
4.087,-20.902,-5.540
4.095,-20.457,-5.421
4.103,-19.935,-5.282
4.112,-19.492,-5.163
4.120,-18.960,-5.022
4.128,-18.450,-4.886
4.137,-17.960,-4.756
4.145,-17.418,-4.612
4.153,-16.833,-4.456
4.162,-16.182,-4.281
4.170,-15.429,-4.080
4.178,-14.654,-3.874
4.187,-13.914,-3.676
4.195,-13.118,-3.465
4.203,-12.372,-3.266
4.212,-11.659,-3.077
4.220,-10.957,-2.891
4.228,-10.266,-2.708
4.237,-9.566,-2.522
4.245,-8.823,-2.326
4.253,-8.172,-2.154
4.262,-7.513,-1.980
4.270,-6.873,-1.811
4.278,-6.231,-1.641
4.287,-5.624,-1.482
4.295,-4.968,-1.308
4.303,-4.272,-1.125
4.312,-3.541,-0.932
4.320,-2.865,-0.754
4.328,-2.196,-0.578
4.337,-1.512,-0.398
4.345,-0.822,-0.216
4.353,-0.054,-0.014
4.362,0.688,0.181
4.370,1.492,0.393
4.378,2.228,0.587
4.387,2.986,0.786
4.395,3.702,0.974
4.403,4.472,1.177
4.412,5.242,1.379
4.420,6.064,1.596
4.428,6.829,1.797
4.437,7.655,2.015
4.445,8.481,2.233
4.454,9.315,2.453
4.462,10.227,2.694
4.470,11.072,2.917
4.479,11.986,3.158
4.487,12.840,3.384
4.495,13.714,3.616
4.504,14.635,3.859
4.512,15.519,4.093
4.520,16.392,4.325
4.529,17.287,4.563
4.537,18.217,4.809
4.545,19.092,5.043
4.554,19.988,5.281
4.562,20.917,5.530
4.570,21.935,5.800
4.579,22.896,6.058
4.587,23.880,6.321
4.595,24.840,6.579
4.604,25.762,6.829
4.612,26.661,7.070
4.620,27.496,7.295
4.629,28.202,7.486
4.637,28.884,7.669
4.645,29.505,7.837
4.654,30.157,8.011
4.662,30.786,8.181
4.670,31.439,8.358
4.679,32.047,8.523
4.687,32.709,8.703
4.695,33.402,8.892
4.704,34.068,9.072
4.712,34.708,9.248
4.720,35.370,9.429
4.729,36.053,9.613
4.737,36.682,9.787
4.745,37.387,9.980
4.754,37.997,10.152
4.762,38.614,10.322
4.770,39.209,10.488
4.779,39.701,10.627
4.787,40.141,10.750
4.795,40.519,10.855
4.804,40.875,10.952
4.812,41.184,11.036
4.820,41.533,11.130
4.829,41.868,11.222
4.837,42.179,11.307
4.845,42.524,11.402
4.854,42.834,11.489
4.862,43.113,11.569
4.871,43.415,11.652
4.879,43.659,11.720
4.887,43.881,11.783
4.896,44.085,11.841
4.904,44.248,11.890
4.912,44.412,11.938
4.921,44.561,11.981
4.929,44.702,12.021
4.937,44.798,12.050
4.946,44.871,12.072
4.954,44.876,12.075
4.962,44.812,12.055
4.971,44.627,12.003
4.979,44.389,11.935
4.987,44.139,11.864
4.996,43.779,11.763
5.004,43.545,11.696
5.012,43.207,11.603
5.021,42.977,11.537
5.029,42.693,11.459
5.037,42.475,11.396
5.046,42.312,11.349
5.054,42.091,11.290
5.062,41.918,11.241
5.071,41.713,11.183
5.079,41.451,11.111
5.087,41.184,11.035
5.096,40.910,10.959
5.104,40.624,10.878
5.112,40.295,10.786
5.121,39.947,10.689
5.129,39.565,10.582
5.137,39.178,10.473
5.146,38.712,10.345
5.154,38.259,10.221
5.162,37.765,10.083
5.171,37.215,9.934
5.179,36.685,9.791
5.187,36.189,9.656
5.196,35.689,9.520
5.204,35.254,9.401
5.212,34.789,9.275
5.221,34.325,9.148
5.229,33.858,9.021
5.237,33.354,8.882
5.246,32.838,8.742
5.254,32.308,8.597
5.262,31.691,8.429
5.271,31.083,8.263
5.279,30.437,8.089
5.288,29.783,7.910
5.296,29.092,7.724
5.304,28.375,7.530
5.313,27.633,7.329
5.321,26.932,7.141
5.329,26.260,6.959
5.338,25.599,6.782
5.346,25.024,6.627
5.354,24.356,6.449
5.363,23.718,6.275
5.371,23.000,6.083
5.379,22.308,5.897
5.388,21.622,5.715
5.396,20.962,5.539
5.404,20.294,5.360
5.413,19.605,5.176
5.421,18.959,5.004
5.429,18.287,4.827
5.438,17.651,4.657
5.446,16.949,4.472
5.454,16.264,4.289
5.463,15.503,4.087
5.471,14.725,3.882
5.479,13.953,3.678
5.488,13.138,3.461
5.496,12.371,3.259
5.504,11.606,3.057
5.513,10.832,2.852
5.521,10.073,2.652
5.529,9.300,2.448
5.538,8.516,2.241
5.546,7.661,2.016
5.554,6.762,1.779
5.563,5.871,1.544
5.571,4.981,1.311
5.579,4.048,1.065
5.588,3.139,0.826
5.596,2.213,0.582
5.604,1.327,0.349
5.613,0.387,0.102
5.621,-0.563,-0.148
5.629,-1.526,-0.402
5.638,-2.525,-0.665
5.646,-3.562,-0.938
5.654,-4.512,-1.188
5.663,-5.486,-1.445
5.671,-6.437,-1.696
5.679,-7.359,-1.940
5.688,-8.273,-2.181
5.696,-9.095,-2.399
5.704,-9.840,-2.596
5.713,-10.580,-2.792
5.721,-11.352,-2.996
5.730,-12.163,-3.211
5.738,-12.916,-3.411
5.746,-13.669,-3.610
5.755,-14.446,-3.818
5.763,-15.182,-4.012
5.771,-15.912,-4.208
5.780,-16.667,-4.410
5.788,-17.444,-4.617
5.796,-18.173,-4.813
5.805,-18.987,-5.032
5.813,-19.713,-5.226
5.821,-20.458,-5.428
5.830,-21.198,-5.626
5.838,-21.924,-5.821
5.846,-22.595,-6.003
5.855,-23.189,-6.163
5.863,-23.712,-6.303
5.871,-24.179,-6.431
5.880,-24.590,-6.540
5.888,-25.035,-6.659
5.896,-25.455,-6.773
5.905,-25.838,-6.877
5.913,-26.316,-7.005
5.921,-26.701,-7.111
5.930,-27.107,-7.219
5.938,-27.519,-7.334
5.946,-27.880,-7.431
5.955,-28.173,-7.511
5.963,-28.480,-7.594
5.971,-28.767,-7.673
5.980,-28.984,-7.731
5.988,-29.217,-7.797
5.996,-29.386,-7.843
6.005,-29.508,-7.880
6.013,-29.643,-7.917
6.021,-29.669,-7.924
6.030,-29.639,-7.916
6.038,-29.580,-7.897
6.046,-29.412,-7.853
6.055,-29.295,-7.819
6.063,-29.133,-7.774
6.071,-28.963,-7.727
6.080,-28.788,-7.678
6.088,-28.661,-7.644
6.096,-28.501,-7.601
6.105,-28.400,-7.572
6.113,-28.300,-7.544
6.121,-28.220,-7.522
6.130,-28.111,-7.493
6.138,-27.973,-7.456
6.147,-27.649,-7.368
6.155,-27.352,-7.285
6.163,-26.983,-7.185
6.172,-26.676,-7.100
6.180,-26.317,-7.002
6.188,-25.980,-6.911
6.197,-25.599,-6.808
6.205,-25.206,-6.702
6.213,-24.753,-6.580
6.222,-24.241,-6.441
6.230,-23.728,-6.302
6.238,-23.214,-6.163
6.247,-22.741,-6.034
6.255,-22.279,-5.911
6.263,-21.818,-5.788
6.272,-21.340,-5.660
6.280,-20.817,-5.521
6.288,-20.294,-5.382
6.297,-19.778,-5.245
6.305,-19.284,-5.112
6.313,-18.767,-4.974
6.322,-18.241,-4.833
6.330,-17.673,-4.681
6.338,-17.070,-4.520
6.347,-16.361,-4.331
6.355,-15.543,-4.113
6.363,-14.767,-3.906
6.372,-13.943,-3.687
6.380,-13.176,-3.482
6.388,-12.438,-3.286
6.397,-11.730,-3.098
6.405,-11.020,-2.909
6.413,-10.330,-2.727
6.422,-9.622,-2.539
6.430,-8.925,-2.355
6.438,-8.239,-2.174
6.447,-7.630,-2.012
6.455,-7.074,-1.865
6.463,-6.476,-1.707
6.472,-5.817,-1.534
6.480,-5.147,-1.357
6.488,-4.447,-1.172
6.497,-3.743,-0.986
6.505,-3.046,-0.803
6.513,-2.441,-0.643
6.522,-1.729,-0.455
6.530,-0.993,-0.262
6.538,-0.183,-0.048
6.547,0.638,0.168
6.555,1.427,0.376
6.564,2.178,0.574
6.572,2.895,0.762
6.580,3.593,0.946
6.589,4.358,1.147
6.597,5.117,1.347
6.605,5.902,1.553
6.614,6.666,1.755
6.622,7.492,1.972
6.630,8.318,2.190
6.639,9.120,2.402
6.647,9.946,2.619
6.655,10.819,2.850
6.664,11.712,3.086
6.672,12.628,3.328
6.680,13.568,3.576
6.689,14.503,3.823
6.697,15.388,4.059
6.705,16.284,4.297
6.714,17.114,4.517
6.722,17.975,4.745
6.730,18.839,4.975
6.739,19.734,5.214
6.747,20.700,5.472
6.755,21.652,5.726
6.764,22.591,5.979
6.772,23.514,6.225
6.780,24.444,6.473
6.789,25.332,6.713
6.797,26.194,6.945
6.805,26.971,7.154
6.814,27.612,7.328
6.822,28.330,7.521
6.830,28.985,7.697
6.839,29.650,7.877
6.847,30.325,8.060
6.855,31.037,8.252
6.864,31.748,8.443
6.872,32.424,8.627
6.880,33.097,8.811
6.889,33.797,9.000
6.897,34.445,9.180
6.905,35.139,9.368
6.914,35.823,9.555
6.922,36.496,9.739
6.930,37.157,9.922
6.939,37.774,10.092
6.947,38.385,10.263
6.955,38.989,10.426
6.964,39.471,10.560
6.972,39.871,10.671
6.981,40.218,10.767
6.989,40.551,10.860
6.997,40.918,10.960
7.006,41.281,11.059
7.014,41.621,11.153
7.022,41.980,11.252
7.031,42.341,11.354
7.039,42.678,11.449
7.047,42.997,11.538
7.056,43.216,11.602
7.064,43.451,11.666
7.072,43.684,11.731
7.081,43.906,11.794
7.089,44.098,11.849
7.097,44.227,11.888
7.106,44.411,11.941
7.114,44.467,11.959
7.122,44.464,11.962
7.131,44.500,11.971
7.139,44.452,11.960
7.147,44.352,11.929
7.156,44.102,11.858
7.164,43.848,11.785
7.172,43.567,11.704
7.181,43.228,11.609
7.189,42.925,11.521
7.197,42.655,11.442
7.206,42.384,11.366
7.214,42.122,11.295
7.222,41.932,11.242
7.231,41.801,11.206
7.239,41.676,11.172
7.247,41.496,11.124
7.256,41.298,11.069
7.264,41.063,11.003
7.272,40.829,10.938
7.281,40.574,10.870
7.289,40.290,10.789
7.297,39.962,10.698
7.306,39.587,10.595
7.314,39.228,10.496
7.322,38.796,10.373
7.331,38.348,10.248
7.339,37.852,10.110
7.347,37.291,9.956
7.356,36.753,9.806
7.364,36.234,9.662
7.372,35.701,9.517
7.381,35.184,9.377
7.389,34.707,9.246
7.398,34.257,9.124
7.406,33.812,9.002
7.414,33.336,8.873
7.423,32.802,8.727
7.431,32.292,8.587
7.439,31.729,8.435
7.448,31.179,8.287
7.456,30.579,8.123
7.464,29.937,7.949
7.473,29.282,7.770
7.481,28.566,7.578
7.489,27.748,7.358
7.498,27.009,7.158
7.506,26.303,6.968
7.514,25.585,6.777
7.523,25.008,6.621
7.531,24.352,6.445
7.539,23.659,6.259
7.548,22.978,6.077
7.556,22.261,5.887
7.564,21.593,5.708
7.573,20.930,5.530
7.581,20.274,5.355
7.589,19.605,5.176
7.598,18.911,4.992
7.606,18.263,4.819
7.614,17.560,4.632
7.623,16.864,4.447
7.631,16.177,4.264
7.639,15.453,4.074
7.648,14.717,3.879
7.656,13.964,3.680
7.664,13.234,3.487
7.673,12.409,3.268
7.681,11.606,3.056
7.689,10.807,2.845
7.698,10.006,2.633
7.706,9.204,2.422
7.714,8.402,2.210
7.723,7.563,1.989
7.731,6.718,1.767
7.739,5.839,1.536
7.748,4.994,1.314
7.756,4.119,1.083
7.764,3.206,0.843
7.773,2.313,0.608
7.781,1.380,0.363
7.789,0.367,0.096
7.798,-0.560,-0.147
7.806,-1.547,-0.407
7.814,-2.479,-0.652
7.823,-3.420,-0.900
7.831,-4.421,-1.163
7.840,-5.407,-1.423
7.848,-6.418,-1.690
7.856,-7.367,-1.940
7.865,-8.329,-2.195
7.873,-9.198,-2.425
7.881,-9.959,-2.626
7.890,-10.662,-2.813
7.898,-11.354,-2.996
7.906,-12.099,-3.193
7.915,-12.857,-3.394
7.923,-13.605,-3.591
7.931,-14.411,-3.805
7.940,-15.208,-4.017
7.948,-15.975,-4.221
7.956,-16.743,-4.426
7.965,-17.525,-4.634
7.973,-18.238,-4.826
7.981,-18.968,-5.021
7.990,-19.761,-5.233
7.998,-20.495,-5.430
8.006,-21.239,-5.629
8.015,-21.945,-5.818
8.023,-22.574,-5.988
8.031,-23.218,-6.159
8.040,-23.781,-6.311
8.048,-24.273,-6.443
8.056,-24.707,-6.560
8.065,-25.112,-6.670
8.073,-25.497,-6.773
8.081,-25.899,-6.881
8.090,-26.291,-6.985
8.098,-26.645,-7.082
8.106,-27.095,-7.205
8.115,-27.501,-7.317
8.123,-27.882,-7.420
8.131,-28.193,-7.506
8.140,-28.468,-7.582
8.148,-28.736,-7.655
8.156,-28.958,-7.718
8.165,-29.144,-7.769
8.173,-29.262,-7.802
8.181,-29.399,-7.840
8.190,-29.536,-7.879
8.198,-29.637,-7.905
8.206,-29.587,-7.893
8.215,-29.514,-7.869
8.223,-29.372,-7.829
8.231,-29.182,-7.777
8.240,-28.962,-7.718
8.248,-28.781,-7.668
8.257,-28.620,-7.624
8.265,-28.486,-7.586
8.273,-28.362,-7.551
8.282,-28.233,-7.516
8.290,-28.111,-7.484
8.298,-27.975,-7.449
8.307,-27.850,-7.416
8.315,-27.628,-7.355
8.323,-27.413,-7.295
8.332,-27.114,-7.215
8.340,-26.735,-7.111
8.348,-26.317,-6.998
8.357,-25.908,-6.888
8.365,-25.541,-6.789
8.373,-25.141,-6.680
8.382,-24.727,-6.567
8.390,-24.243,-6.437
